   0.0000    587712
   0.0050    485037
   0.0100    405236
   0.0150    339457
   0.0200    292752
   0.0250    259753
   0.0300    233343
   0.0350    217215
   0.0400    207613
   0.0450    195158
   0.0500    186983
   0.0550    176448
   0.0600    164705
   0.0650    154941
   0.0700    141544
   0.0750    131471
   0.0800    125812
   0.0850    118373
   0.0900    112100
   0.0950    105799
   0.1000    100767
   0.1050     94787
   0.1100     88355
   0.1150     83597
   0.1200     76368
   0.1250     70258
   0.1300     65683
   0.1350     61063
   0.1400     56381
   0.1450     51726
   0.1500     47275
   0.1550     43303
   0.1600     39492
   0.1650     35507
   0.1700     32165
   0.1750     29580
   0.1800     26535
   0.1850     24210
   0.1900     22163
   0.1950     19716
   0.2000     17416
   0.2050     14736
   0.2100     12127
   0.2150     10045
   0.2200      7959
   0.2250      6473
   0.2300      5039
   0.2350      4193
   0.2400      3317
   0.2450      2836
   0.2500      2460
   0.2550      2239
   0.2600      2138
   0.2650      2001
   0.2700      1855
   0.2750      1666
   0.2800      1501
   0.2850      1457
   0.2900      1398
   0.2950      1395
   0.3000      1290
   0.3050      1244
   0.3100      1252
   0.3150      1253
   0.3200      1193
   0.3250      1160
   0.3300      1122
   0.3350      1105
   0.3400      1015
   0.3450      1010
   0.3500      1024
   0.3550      1046
   0.3600       956
   0.3650       981
   0.3700       991
   0.3750       984
   0.3800       943
   0.3850       940
   0.3900       903
   0.3950       863
   0.4000       850
   0.4050       800
   0.4100       719
   0.4150       736
   0.4200       664
   0.4250       624
   0.4300       660
   0.4350       558
   0.4400       512
   0.4450       456
   0.4500       422
   0.4550       393
   0.4600       358
   0.4650       297
   0.4700       275
   0.4750       245
   0.4800       182
   0.4850       171
   0.4900       151
   0.4950       132
   0.5000        97
   0.5050        96
   0.5100        95
   0.5150        79
   0.5200        93
   0.5250        80
   0.5300        87
   0.5350        77
   0.5400        66
   0.5450        73
   0.5500        64
   0.5550        67
   0.5600        69
   0.5650        55
   0.5700        74
   0.5750        78
   0.5800        72
   0.5850        61
   0.5900        49
   0.5950        72
   0.6000        57
   0.6050        69
   0.6100        47
   0.6150        57
   0.6200        70
   0.6250        44
   0.6300        52
   0.6350        58
   0.6400        46
   0.6450        46
   0.6500        57
   0.6550        49
   0.6600        57
   0.6650        65
   0.6700        52
   0.6750        49
   0.6800        56
   0.6850        46
   0.6900        52
   0.6950        52
   0.7000        54
   0.7050        42
   0.7100        50
   0.7150        41
   0.7200        39
   0.7250        42
   0.7300        64
   0.7350        54
   0.7400        41
   0.7450        51
   0.7500        37
   0.7550        47
   0.7600        44
   0.7650        40
   0.7700        48
   0.7750        47
   0.7800        46
   0.7850        54
   0.7900        48
   0.7950        32
   0.8000        48
   0.8050        33
   0.8100        44
   0.8150        46
   0.8200        31
   0.8250        42
   0.8300        39
   0.8350        36
   0.8400        34
   0.8450        29
   0.8500        27
   0.8550        32
   0.8600        33
   0.8650        35
   0.8700        33
   0.8750        45
   0.8800        39
   0.8850        39
   0.8900        28
   0.8950        30
   0.9000        34
   0.9050        30
   0.9100        33
   0.9150        33
   0.9200        24
   0.9250        22
   0.9300        28
   0.9350        26
   0.9400        27
   0.9450        40
   0.9500        23
   0.9550        34
   0.9600        29
   0.9650        32
   0.9700        25
   0.9750        29
   0.9800        24
   0.9850        34
   0.9900        26
   0.9950        20
   1.0000        21
   1.0050        19
   1.0100        26
   1.0150        15
   1.0200        33
   1.0250        24
   1.0300        20
   1.0350        17
   1.0400        20
   1.0450        20
   1.0500        18
   1.0550        32
   1.0600        19
   1.0650        28
   1.0700        20
   1.0750        15
   1.0800        15
   1.0850        19
   1.0900        16
   1.0950        28
   1.1000        13
   1.1050        20
   1.1100        20
   1.1150        19
   1.1200        15
   1.1250        17
   1.1300        18
   1.1350        19
   1.1400        17
   1.1450        22
   1.1500        22
   1.1550        12
   1.1600        20
   1.1650        15
   1.1700        12
   1.1750        13
   1.1800        15
   1.1850        10
   1.1900        13
   1.1950        24
   1.2000        14
   1.2050        15
   1.2100         7
   1.2150        16
   1.2200        17
   1.2250         8
   1.2300        13
   1.2350        14
   1.2400         8
   1.2450        21
   1.2500        10
   1.2550        21
   1.2600         8
   1.2650        16
   1.2700         9
   1.2750        10
   1.2800        10
   1.2850         5
   1.2900         9
   1.2950         8
   1.3000        15
   1.3050         9
   1.3100         9
   1.3150        11
   1.3200        11
   1.3250        11
   1.3300        15
   1.3350        10
   1.3400        13
   1.3450        11
   1.3500         8
   1.3550        11
   1.3600         8
   1.3650        10
   1.3700        11
   1.3750         9
   1.3800        10
   1.3850         5
   1.3900         6
   1.3950         6
   1.4000        10
   1.4050         6
   1.4100         6
   1.4150         7
   1.4200         6
   1.4250         9
   1.4300         7
   1.4350         6
   1.4400         3
   1.4450         5
   1.4500        11
   1.4550        11
   1.4600        10
   1.4650         8
   1.4700         9
   1.4750         3
   1.4800        10
   1.4850         6
   1.4900         8
   1.4950         5
   1.5000        10
   1.5050         8
   1.5100         8
   1.5150         6
   1.5200        11
   1.5250        12
   1.5300         6
   1.5350         7
   1.5400         8
   1.5450         8
   1.5500         3
   1.5550        10
   1.5600         9
   1.5650         8
   1.5700         5
   1.5750         6
   1.5800         4
   1.5850         8
   1.5900         6
   1.5950         8
   1.6000         5
   1.6050         3
   1.6100         4
   1.6150         8
   1.6200         6
   1.6250         7
   1.6300         9
   1.6350         5
   1.6400         1
   1.6450         6
   1.6500         5
   1.6550         5
   1.6600        10
   1.6650         7
   1.6700         2
   1.6750         5
   1.6800         4
   1.6850         5
   1.6900         8
   1.6950         6
   1.7000         2
   1.7050         8
   1.7100         2
   1.7150         2
   1.7200         4
   1.7250         4
   1.7300         4
   1.7350         5
   1.7400         2
   1.7450         3
   1.7500         3
   1.7550         8
   1.7600         4
   1.7650         4
   1.7700         5
   1.7750         4
   1.7800         3
   1.7850        10
   1.7900         4
   1.7950         2
   1.8000         3
   1.8050         4
   1.8100         3
   1.8150        11
   1.8200         2
   1.8250         7
   1.8300         3
   1.8350         2
   1.8400         2
   1.8450         1
   1.8500         6
   1.8550         3
   1.8600         4
   1.8650         2
   1.8700         5
   1.8750        10
   1.8800         7
   1.8850         4
   1.8900         7
   1.8950         2
   1.9000         2
   1.9050         5
   1.9100         1
   1.9150         3
   1.9200         6
   1.9250         5
   1.9300         3
   1.9350         2
   1.9400         3
   1.9450         7
   1.9500         4
   1.9550         3
   1.9600         3
   1.9650         1
   1.9700         8
   1.9750         3
   1.9800         6
   1.9850         9
   1.9900         8
   1.9950         4
   2.0000         1
   2.0050         2
   2.0100         1
   2.0150         1
   2.0200         3
   2.0250         8
   2.0300         2
   2.0350         2
   2.0400         0
   2.0450         5
   2.0500         3
   2.0550         4
   2.0600        14
   2.0650         2
   2.0700         8
   2.0750         3
   2.0800         5
   2.0850         2
   2.0900         1
   2.0950         2
   2.1000         7
   2.1050         3
   2.1100         4
   2.1150         4
   2.1200         3
   2.1250         1
   2.1300         4
   2.1350         4
   2.1400         5
   2.1450         2
   2.1500         4
   2.1550         6
   2.1600         3
   2.1650         3
   2.1700         2
   2.1750         4
   2.1800         2
   2.1850         9
   2.1900         8
   2.1950         3
   2.2000         8
   2.2050         3
   2.2100         4
   2.2150         2
   2.2200         3
   2.2250         5
   2.2300         3
   2.2350         4
   2.2400         7
   2.2450         1
   2.2500         6
   2.2550         2
   2.2600         2
   2.2650         6
   2.2700         0
   2.2750         4
   2.2800         1
   2.2850         2
   2.2900         5
   2.2950         2
   2.3000         2
   2.3050         1
   2.3100         2
   2.3150         3
   2.3200         0
   2.3250         5
   2.3300         3
   2.3350         1
   2.3400         0
   2.3450         3
   2.3500         4
   2.3550         4
   2.3600         4
   2.3650         5
   2.3700         4
   2.3750         3
   2.3800         0
   2.3850         8
   2.3900         3
   2.3950         3
   2.4000         7
   2.4050         2
   2.4100         4
   2.4150         1
   2.4200         4
   2.4250         4
   2.4300         6
   2.4350         3
   2.4400         4
   2.4450         3
   2.4500         7
   2.4550         2
   2.4600         0
   2.4650         5
   2.4700         1
   2.4750         3
   2.4800         2
   2.4850         2
   2.4900         2
   2.4950         3
   2.5000         1
