   0.0000   2927350
   0.0050   3521290
   0.0100   3980750
   0.0150   4195460
   0.0200   4052700
   0.0250   3565950
   0.0300   2836460
   0.0350   2193920
   0.0400   1747240
   0.0450   1500940
   0.0500   1392640
   0.0550   1354730
   0.0600   1357620
   0.0650   1371780
   0.0700   1412500
   0.0750   1464900
   0.0800   1523200
   0.0850   1591120
   0.0900   1658480
   0.0950   1735190
   0.1000   1804160
   0.1050   1874500
   0.1100   1947060
   0.1150   2014480
   0.1200   2078090
   0.1250   2159880
   0.1300   2230910
   0.1350   2301220
   0.1400   2369140
   0.1450   2426820
   0.1500   2468840
   0.1550   2508120
   0.1600   2544580
   0.1650   2570110
   0.1700   2594570
   0.1750   2626810
   0.1800   2690310
   0.1850   2747730
   0.1900   2796130
   0.1950   2828520
   0.2000   2823770
   0.2050   2809950
   0.2100   2694860
   0.2150   2541560
   0.2200   2271000
   0.2250   1950510
   0.2300   1602610
   0.2350   1239990
   0.2400    904582
   0.2450    654259
   0.2500    481438
   0.2550    363910
   0.2600    311196
   0.2650    288728
   0.2700    271970
   0.2750    242761
   0.2800    204028
   0.2850    161715
   0.2900    126125
   0.2950    102885
   0.3000     95403
   0.3050     97552
   0.3100    102340
   0.3150    104089
   0.3200     98588
   0.3250     86233
   0.3300     70199
   0.3350     55883
   0.3400     46017
   0.3450     42124
   0.3500     44296
   0.3550     48074
   0.3600     51238
   0.3650     51345
   0.3700     47511
   0.3750     40324
   0.3800     32854
   0.3850     26674
   0.3900     23113
   0.3950     22532
   0.4000     24554
   0.4050     26385
   0.4100     28777
   0.4150     28656
   0.4200     26001
   0.4250     22474
   0.4300     18407
   0.4350     15363
   0.4400     13721
   0.4450     13681
   0.4500     14607
   0.4550     16050
   0.4600     16908
   0.4650     16936
   0.4700     15799
   0.4750     13837
   0.4800     11628
   0.4850      9530
   0.4900      8345
   0.4950      8484
   0.5000      9051
   0.5050      9707
   0.5100     10441
   0.5150     10317
   0.5200      9624
   0.5250      8560
   0.5300      7158
   0.5350      6085
   0.5400      5213
   0.5450      5173
   0.5500      5290
   0.5550      6005
   0.5600      6509
   0.5650      6558
   0.5700      6188
   0.5750      5593
   0.5800      4798
   0.5850      4023
   0.5900      3613
   0.5950      3425
   0.6000      3504
   0.6050      3854
   0.6100      4124
   0.6150      4259
   0.6200      4260
   0.6250      3852
   0.6300      3476
   0.6350      2802
   0.6400      2512
   0.6450      2415
   0.6500      2384
   0.6550      2574
   0.6600      2825
   0.6650      3003
   0.6700      2922
   0.6750      2779
   0.6800      2395
   0.6850      2219
   0.6900      1863
   0.6950      1683
   0.7000      1661
   0.7050      1788
   0.7100      1921
   0.7150      2022
   0.7200      2095
   0.7250      1964
   0.7300      1839
   0.7350      1589
   0.7400      1412
   0.7450      1285
   0.7500      1243
   0.7550      1215
   0.7600      1368
   0.7650      1421
   0.7700      1505
   0.7750      1477
   0.7800      1312
   0.7850      1253
   0.7900      1013
   0.7950       943
   0.8000       878
   0.8050       897
   0.8100       920
   0.8150      1024
   0.8200      1092
   0.8250      1029
   0.8300      1060
   0.8350       929
   0.8400       866
   0.8450       813
   0.8500       665
   0.8550       673
   0.8600       696
   0.8650       758
   0.8700       808
   0.8750       781
   0.8800       765
   0.8850       767
   0.8900       662
   0.8950       614
   0.9000       585
   0.9050       461
   0.9100       487
   0.9150       516
   0.9200       606
   0.9250       603
   0.9300       569
   0.9350       579
   0.9400       578
   0.9450       480
   0.9500       435
   0.9550       395
   0.9600       413
   0.9650       364
   0.9700       446
   0.9750       456
   0.9800       479
   0.9850       477
   0.9900       420
   0.9950       375
   1.0000       337
   1.0050       325
   1.0100       321
   1.0150       262
   1.0200       254
   1.0250       307
   1.0300       331
   1.0350       338
   1.0400       343
   1.0450       318
   1.0500       287
   1.0550       234
   1.0600       232
   1.0650       221
   1.0700       219
   1.0750       272
   1.0800       216
   1.0850       255
   1.0900       275
   1.0950       240
   1.1000       217
   1.1050       235
   1.1100       195
   1.1150       163
   1.1200       167
   1.1250       180
   1.1300       178
   1.1350       220
   1.1400       222
   1.1450       178
   1.1500       178
   1.1550       160
   1.1600       159
   1.1650       151
   1.1700       129
   1.1750       132
   1.1800       139
   1.1850       153
   1.1900       155
   1.1950       179
   1.2000       169
   1.2050       141
   1.2100       128
   1.2150       122
   1.2200        98
   1.2250       109
   1.2300       119
   1.2350        97
   1.2400       106
   1.2450       120
   1.2500       125
   1.2550       105
   1.2600       124
   1.2650       109
   1.2700       106
   1.2750        91
   1.2800        87
   1.2850        97
   1.2900        81
   1.2950        83
   1.3000        95
   1.3050       100
   1.3100        99
   1.3150        90
   1.3200        66
   1.3250        56
   1.3300        63
   1.3350        74
   1.3400        75
   1.3450        83
   1.3500        67
   1.3550        72
   1.3600        86
   1.3650        68
   1.3700        62
   1.3750        50
   1.3800        61
   1.3850        52
   1.3900        43
   1.3950        56
   1.4000        57
   1.4050        69
   1.4100        76
   1.4150        74
   1.4200        59
   1.4250        57
   1.4300        41
   1.4350        41
   1.4400        55
   1.4450        41
   1.4500        51
   1.4550        64
   1.4600        52
   1.4650        43
   1.4700        56
   1.4750        39
   1.4800        42
   1.4850        30
   1.4900        36
   1.4950        42
   1.5000        40
   1.5050        40
   1.5100        43
   1.5150        48
   1.5200        47
   1.5250        38
   1.5300        31
   1.5350        32
   1.5400        20
   1.5450        23
   1.5500        21
   1.5550        27
   1.5600        35
   1.5650        32
   1.5700        36
   1.5750        31
   1.5800        29
   1.5850        22
   1.5900        31
   1.5950        26
   1.6000        22
   1.6050        24
   1.6100        37
   1.6150        33
   1.6200        22
   1.6250        23
   1.6300        30
   1.6350        27
   1.6400        27
   1.6450        17
   1.6500        14
   1.6550        20
   1.6600        20
   1.6650        24
   1.6700        22
   1.6750        22
   1.6800        23
   1.6850        16
   1.6900        20
   1.6950        21
   1.7000        21
   1.7050        13
   1.7100        19
   1.7150        23
   1.7200        15
   1.7250        24
   1.7300        26
   1.7350        27
   1.7400        16
   1.7450        22
   1.7500        15
   1.7550        13
   1.7600        25
   1.7650        14
   1.7700        16
   1.7750        16
   1.7800        22
   1.7850        18
   1.7900        13
   1.7950        19
   1.8000         8
   1.8050        16
   1.8100        11
   1.8150        14
   1.8200        10
   1.8250        13
   1.8300        17
   1.8350        16
   1.8400        10
   1.8450        14
   1.8500        16
   1.8550         7
   1.8600         5
   1.8650        16
   1.8700        10
   1.8750         6
   1.8800        11
   1.8850        11
   1.8900        11
   1.8950         9
   1.9000         8
   1.9050         9
   1.9100         8
   1.9150        14
   1.9200         7
   1.9250        12
   1.9300         9
   1.9350         8
   1.9400        11
   1.9450        15
   1.9500        15
   1.9550        32
   1.9600        13
   1.9650         3
   1.9700         3
   1.9750         8
   1.9800         8
   1.9850         5
   1.9900        12
   1.9950         5
   2.0000        11
   2.0050        11
   2.0100        10
   2.0150         6
   2.0200         4
   2.0250        12
   2.0300         5
   2.0350         3
   2.0400        11
   2.0450         7
   2.0500         9
   2.0550         7
   2.0600         8
   2.0650         8
   2.0700         6
   2.0750         4
   2.0800        10
   2.0850         8
   2.0900         5
   2.0950        10
   2.1000         7
   2.1050         4
   2.1100         7
   2.1150         8
   2.1200         7
   2.1250        10
   2.1300         7
   2.1350         5
   2.1400        10
   2.1450         8
   2.1500         5
   2.1550         2
   2.1600         4
   2.1650         5
   2.1700         5
   2.1750         7
   2.1800         6
   2.1850         8
   2.1900        11
   2.1950         3
   2.2000         1
   2.2050         3
   2.2100         3
   2.2150         8
   2.2200         5
   2.2250         4
   2.2300        11
   2.2350         3
   2.2400         5
   2.2450         5
   2.2500         8
   2.2550         6
   2.2600         7
   2.2650         5
   2.2700         6
   2.2750         5
   2.2800         5
   2.2850         6
   2.2900         3
   2.2950         2
   2.3000         7
   2.3050         8
   2.3100         2
   2.3150         6
   2.3200         9
   2.3250         5
   2.3300         5
   2.3350         4
   2.3400         5
   2.3450         4
   2.3500         4
   2.3550         2
   2.3600         3
   2.3650         3
   2.3700         6
   2.3750         4
   2.3800         3
   2.3850         4
   2.3900         5
   2.3950         7
   2.4000         5
   2.4050         5
   2.4100         3
   2.4150         3
   2.4200         1
   2.4250         5
   2.4300         6
   2.4350         3
   2.4400         5
   2.4450         2
   2.4500         1
   2.4550         5
   2.4600         3
   2.4650         2
   2.4700         3
   2.4750         6
   2.4800         5
   2.4850         6
   2.4900         5
   2.4950         6
   2.5000         2
