  -0.5000      8785
  -0.4900      8687
  -0.4800      8931
  -0.4700      8757
  -0.4600      8850
  -0.4500      8898
  -0.4400      8888
  -0.4300      9041
  -0.4200      8840
  -0.4100      8818
  -0.4000      8752
  -0.3900      8789
  -0.3800      8746
  -0.3700      8765
  -0.3600      8750
  -0.3500      8860
  -0.3400      8831
  -0.3300      8790
  -0.3200      8789
  -0.3100      8709
  -0.3000      8713
  -0.2900      8823
  -0.2800      8836
  -0.2700      8651
  -0.2600      8521
  -0.2500      8805
  -0.2400      8713
  -0.2300      8720
  -0.2200      8695
  -0.2100      8769
  -0.2000      8809
  -0.1900      8760
  -0.1800      8880
  -0.1700      8922
  -0.1600      8891
  -0.1500      8851
  -0.1400      8907
  -0.1300      8952
  -0.1200      8778
  -0.1100      8833
  -0.1000      8939
  -0.0900      9208
  -0.0800      8967
  -0.0700      8789
  -0.0600      8765
  -0.0500      8430
  -0.0400      7630
  -0.0300      6978
  -0.0200      6245
  -0.0100      5191
   0.0000      4221
   0.0100      3198
   0.0200      2323
   0.0300      1663
   0.0400       987
   0.0500       612
   0.0600       252
   0.0700       101
   0.0800        26
   0.0900         4
   0.1000         2
   0.1100         2
   0.1200         0
   0.1300         1
   0.1400         0
   0.1500         0
   0.1600         1
   0.1700         0
   0.1800         0
   0.1900         0
   0.2000         1
   0.2100         0
   0.2200         2
   0.2300         1
   0.2400         0
   0.2500         1
   0.2600         0
   0.2700         0
   0.2800         0
   0.2900         0
   0.3000         0
   0.3100         0
   0.3200         0
   0.3300         0
   0.3400         0
   0.3500         0
   0.3600         2
   0.3700         0
   0.3800         1
   0.3900         0
   0.4000         0
   0.4100         0
   0.4200         0
   0.4300         0
   0.4400         0
   0.4500         0
   0.4600         0
   0.4700         0
   0.4800         0
   0.4900         0
   0.5000         0
